depth	signal
4.000000E+00	1.986000E+01
4.200000E+00	1.987100E+01
4.700000E+00	1.988700E+01
5.200000E+00	1.991300E+01
5.700000E+00	1.992900E+01
6.200000E+00	2.000200E+01
6.700000E+00	2.002900E+01
7.200000E+00	2.008600E+01
7.700000E+00	2.013900E+01
8.200000E+00	2.017100E+01
8.600000E+00	2.019400E+01
9.200000E+00	2.024700E+01
9.700000E+00	2.029700E+01
1.020000E+01	2.032300E+01
1.070000E+01	2.037300E+01
1.120000E+01	2.039700E+01
1.170000E+01	2.042800E+01
1.220000E+01	2.046800E+01
1.270000E+01	2.049100E+01
1.320000E+01	2.052800E+01
1.370000E+01	2.056500E+01
1.420000E+01	2.061000E+01
1.470000E+01	2.063300E+01
1.520000E+01	2.064400E+01
1.570000E+01	2.068800E+01
1.620000E+01	2.071700E+01
1.670000E+01	2.074400E+01
1.720000E+01	2.076700E+01
1.770000E+01	2.079900E+01
1.820000E+01	2.082800E+01
1.870000E+01	2.083600E+01
1.920000E+01	2.088800E+01
1.970000E+01	2.090100E+01
2.020000E+01	2.093800E+01
2.070000E+01	2.094600E+01
2.120000E+01	2.099100E+01
2.170000E+01	2.100400E+01
2.220000E+01	2.102700E+01
2.270000E+01	2.105400E+01
2.320000E+01	2.107000E+01
2.370000E+01	2.109100E+01
2.420000E+01	2.111200E+01
2.470000E+01	2.112700E+01
2.520000E+01	2.116900E+01
2.570000E+01	2.119300E+01
2.620000E+01	2.120100E+01
2.670000E+01	2.121900E+01
2.720000E+01	2.124800E+01
2.770000E+01	2.125900E+01
2.830000E+01	2.128800E+01
2.880000E+01	2.130900E+01
2.930000E+01	2.133800E+01
2.980000E+01	2.135300E+01
3.030000E+01	2.137400E+01
3.080000E+01	2.138500E+01
3.130000E+01	2.141600E+01
3.180000E+01	2.143000E+01
3.230000E+01	2.144300E+01
3.280000E+01	2.145900E+01
3.330000E+01	2.147200E+01
3.380000E+01	2.148700E+01
3.680000E+01	2.159500E+01
3.980000E+01	2.168500E+01
4.280000E+01	2.176300E+01
4.580000E+01	2.183700E+01
4.880000E+01	2.191900E+01
5.180000E+01	2.197900E+01
5.490000E+01	2.203400E+01
5.790000E+01	2.208900E+01
6.090000E+01	2.215500E+01
6.390000E+01	2.218700E+01
6.690000E+01	2.225000E+01
6.990000E+01	2.230200E+01
7.300000E+01	2.233600E+01
7.600000E+01	2.240200E+01
7.900000E+01	2.242300E+01
8.200000E+01	2.248400E+01
8.500000E+01	2.252600E+01
8.800000E+01	2.255700E+01
9.100000E+01	2.258300E+01
9.400000E+01	2.263100E+01
9.700000E+01	2.267500E+01
1.000000E+02	2.272800E+01
1.030000E+02	2.275400E+01
1.060000E+02	2.279900E+01
1.090000E+02	2.284600E+01
1.120000E+02	2.289400E+01
1.150000E+02	2.293800E+01
1.180000E+02	2.298600E+01
1.210000E+02	2.302500E+01
1.240000E+02	2.305700E+01
1.270000E+02	2.313000E+01
1.300000E+02	2.317500E+01
1.330000E+02	2.322700E+01
1.360000E+02	2.328800E+01
1.390000E+02	2.333800E+01
1.420000E+02	2.338800E+01
1.450000E+02	2.346100E+01
1.480000E+02	2.352400E+01
1.510000E+02	2.357200E+01
1.540000E+02	2.364300E+01
1.571000E+02	2.371100E+01
1.600000E+02	2.380000E+01
1.630000E+02	2.386100E+01
1.660000E+02	2.393700E+01
1.690000E+02	2.403200E+01
1.720000E+02	2.410300E+01
1.750000E+02	2.419200E+01
1.780000E+02	2.429700E+01
1.810000E+02	2.438700E+01
1.840000E+02	2.448900E+01
1.870000E+02	2.459700E+01
1.900000E+02	2.470500E+01
1.930000E+02	2.481500E+01
1.960000E+02	2.492800E+01
1.990000E+02	2.506500E+01
2.020000E+02	2.520400E+01
2.050000E+02	2.533800E+01
2.080000E+02	2.547200E+01
2.110000E+02	2.563800E+01
2.140000E+02	2.578500E+01
2.170000E+02	2.597400E+01
2.200000E+02	2.615800E+01
2.230000E+02	2.634200E+01
2.260000E+02	2.653700E+01
2.290000E+02	2.672900E+01
2.320000E+02	2.694900E+01
2.350000E+02	2.716200E+01
2.380000E+02	2.744600E+01
2.410000E+02	2.771700E+01
2.440000E+02	2.800300E+01
2.470000E+02	2.830300E+01
2.500000E+02	2.863400E+01
2.530000E+02	2.898900E+01
2.560000E+02	2.938600E+01
2.590000E+02	2.980100E+01
2.620000E+02	3.026100E+01
2.650000E+02	3.075300E+01
2.680000E+02	3.130500E+01
2.710000E+02	3.189900E+01
2.740000E+02	3.254300E+01
2.770000E+02	3.327600E+01
2.800000E+02	3.407500E+01
2.830000E+02	3.499800E+01
2.861000E+02	3.606700E+01
2.866000E+02	3.628000E+01
2.871000E+02	3.645400E+01
2.876000E+02	3.666100E+01
2.881000E+02	3.686900E+01
2.886000E+02	3.707400E+01
2.891000E+02	3.729200E+01
2.896000E+02	3.749500E+01
2.901000E+02	3.772100E+01
2.906000E+02	3.796000E+01
2.911000E+02	3.819600E+01
2.916000E+02	3.845700E+01
2.921000E+02	3.870100E+01
2.926000E+02	3.898500E+01
2.931000E+02	3.927400E+01
2.936000E+02	3.957600E+01
2.941000E+02	3.989200E+01
2.946000E+02	4.023600E+01
2.951000E+02	4.058300E+01
2.956000E+02	4.096400E+01
2.961000E+02	4.135300E+01
2.966000E+02	4.173700E+01
2.971000E+02	4.217100E+01
2.976000E+02	4.260400E+01
2.981000E+02	4.307500E+01
2.986000E+02	4.353700E+01
2.991000E+02	4.402100E+01
2.996000E+02	4.452800E+01
3.001000E+02	4.506700E+01
3.006000E+02	4.561600E+01
3.011000E+02	4.621300E+01
3.016000E+02	4.681500E+01
3.021000E+02	4.744100E+01
3.026000E+02	4.805300E+01
3.031000E+02	4.876500E+01
3.036000E+02	4.945400E+01
3.041000E+02	5.021100E+01
3.046000E+02	5.097100E+01
3.051000E+02	5.180600E+01
3.056000E+02	5.274000E+01
3.061000E+02	5.369900E+01
3.066000E+02	5.475000E+01
3.071000E+02	5.582500E+01
3.076000E+02	5.703700E+01
3.081000E+02	5.838000E+01
3.086000E+02	5.968400E+01
3.091000E+02	6.127100E+01
3.096000E+02	6.283500E+01
3.101000E+02	6.448300E+01
3.106000E+02	6.627900E+01
3.111000E+02	6.829200E+01
3.116000E+02	7.022600E+01
3.121000E+02	7.215600E+01
3.126000E+02	7.400900E+01
3.131000E+02	7.591400E+01
3.136000E+02	7.742300E+01
3.141000E+02	7.851100E+01
3.146000E+02	7.900300E+01
3.151000E+02	7.880000E+01
3.156000E+02	7.777000E+01
3.161000E+02	7.586700E+01
3.166000E+02	7.317000E+01
3.171000E+02	7.006600E+01
3.176000E+02	6.622300E+01
3.181000E+02	6.148400E+01
3.186000E+02	5.628300E+01
3.191000E+02	5.116000E+01
3.196000E+02	4.578500E+01
3.201000E+02	4.028900E+01
3.206000E+02	3.484500E+01
3.211000E+02	2.980900E+01
3.216000E+02	2.507000E+01
3.221000E+02	2.093800E+01
3.226000E+02	1.703800E+01
3.231000E+02	1.350200E+01
3.236000E+02	1.048700E+01
3.241000E+02	8.048000E+00
3.246000E+02	6.140000E+00
3.251000E+02	4.474000E+00
3.256000E+02	3.154000E+00
3.261000E+02	2.192000E+00
3.266000E+02	1.498000E+00
3.271000E+02	1.012000E+00
3.276000E+02	6.700000E-01
3.281000E+02	4.390000E-01
3.286000E+02	2.790000E-01
3.291000E+02	1.790000E-01
3.296000E+02	1.210000E-01
3.301000E+02	9.200000E-02
3.306000E+02	6.600000E-02
3.311000E+02	5.300000E-02
3.317000E+02	4.500000E-02
3.322000E+02	4.200000E-02
3.327000E+02	3.900000E-02
3.332000E+02	3.700000E-02
3.337000E+02	3.900000E-02
3.342000E+02	3.700000E-02
3.347000E+02	3.900000E-02
3.352000E+02	3.400000E-02
3.357000E+02	3.700000E-02
3.362000E+02	3.400000E-02
3.367000E+02	3.700000E-02
3.372000E+02	3.700000E-02
3.377000E+02	3.700000E-02
3.382000E+02	3.700000E-02
3.387000E+02	3.700000E-02
3.392000E+02	3.400000E-02
3.397000E+02	3.700000E-02
3.402000E+02	3.400000E-02
3.407000E+02	3.700000E-02
3.412000E+02	3.400000E-02
3.417000E+02	3.400000E-02
3.422000E+02	3.400000E-02
3.427000E+02	3.700000E-02
3.432000E+02	3.400000E-02
3.437000E+02	3.200000E-02
3.442000E+02	3.400000E-02
3.447000E+02	3.400000E-02
3.452000E+02	3.400000E-02
3.457000E+02	3.400000E-02
3.460000E+02	3.200000E-02
